Energy (MeV/u)1	0 - [He-base] F.Hubert et al, AD&ND Tables 46(1990)1	Energy (MeV/u)2	1 - [H -base] J.F.Ziegler et al, Pergamon Press, NY (low energy)	Energy (MeV/u)3	2 - ATIMA 1.2  LS-theory (recommended for high energy)	Energy (MeV/u)4	3 - ATIMA 1.2  without LS-correction	Energy (MeV/u)5	4 - electrical component of [1] - J.F.Ziegler et al	Energy (MeV/u)6	5 - nuclear component of [1] - J.F.Ziegler et al	
0.001000	4.54861   	0.001000	5.88347   	0.001000	6.00161   	0.001000	6.00161   	0.001000	1.9504    	0.001000	3.93307   	
0.002000	4.59517   	0.002000	5.87217   	0.002000	6.07106   	0.002000	6.07106   	0.002000	2.52935   	0.002000	3.34281   	
0.005000	4.84581   	0.005000	5.90242   	0.005000	6.28445   	0.005000	6.28445   	0.005000	3.56646   	0.005000	2.33596   	
0.008000	5.16755   	0.008000	6.09216   	0.008000	6.61936   	0.008000	6.61936   	0.008000	4.25385   	0.008000	1.83831   	
0.010000	5.38155   	0.010000	6.24747   	0.010000	6.86018   	0.010000	6.86018   	0.010000	4.62513   	0.010000	1.62235   	
0.015000	6.10675   	0.015000	6.7628    	0.015000	7.48685   	0.015000	7.48685   	0.015000	5.49077   	0.015000	1.27203   	
0.020000	6.76898   	0.020000	7.3668    	0.020000	8.2672    	0.020000	8.2672    	0.020000	6.30836   	0.020000	1.05843   	
0.025000	7.54821   	0.025000	8.12908   	0.025000	9.09691   	0.025000	9.09691   	0.025000	7.21647   	0.025000	0.912601  	
0.030000	8.24802   	0.030000	8.89836   	0.030000	10.02     	0.030000	10.02     	0.030000	8.09256   	0.030000	0.805799  	
0.035000	8.8653    	0.035000	9.65826   	0.035000	10.9359   	0.035000	10.9359   	0.035000	8.93835   	0.035000	0.719909  	
0.040000	9.40791   	0.040000	10.4222   	0.040000	11.8432   	0.040000	11.8432   	0.040000	9.7671    	0.040000	0.655078  	
0.045000	9.85818   	0.045000	11.1822   	0.045000	12.7287   	0.045000	12.7287   	0.045000	10.5826   	0.045000	0.599589  	
0.050000	10.2091   	0.050000	11.9214   	0.050000	13.5932   	0.050000	13.5932   	0.050000	11.3658   	0.050000	0.555557  	
0.055000	10.7845   	0.055000	12.7325   	0.055000	14.4307   	0.055000	14.4307   	0.055000	12.2143   	0.055000	0.51815   	
0.060000	11.3014   	0.060000	13.5255   	0.060000	15.239    	0.060000	15.239    	0.060000	13.0395   	0.060000	0.485931  	
0.070000	12.1666   	0.070000	15.0474   	0.070000	16.7621   	0.070000	16.7621   	0.070000	14.6142   	0.070000	0.433157  	
0.080000	13.0878   	0.080000	16.4555   	0.080000	18.1558   	0.080000	18.1558   	0.080000	16.0638   	0.080000	0.391628  	
0.090000	13.8652   	0.090000	17.7555   	0.090000	19.4197   	0.090000	19.4197   	0.090000	17.3975   	0.090000	0.358005  	
0.100000	14.5124   	0.100000	18.9279   	0.100000	20.5572   	0.100000	20.5572   	0.100000	18.5978   	0.100000	0.330168  	
0.120000	15.185    	0.120000	20.94     	0.120000	22.4794   	0.120000	22.4794   	0.120000	20.6533   	0.120000	0.286624  	
0.140000	15.6901   	0.140000	22.5653   	0.140000	23.988    	0.140000	23.988    	0.140000	22.3113   	0.140000	0.254     	
0.160000	16.1362   	0.160000	23.8575   	0.160000	25.1551   	0.160000	25.1551   	0.160000	23.6289   	0.160000	0.228557  	
0.180000	16.574    	0.180000	24.8754   	0.180000	26.0487   	0.180000	26.0487   	0.180000	24.6673   	0.180000	0.208108  	
0.200000	17.1183   	0.200000	25.7963   	0.200000	26.7277   	0.200000	26.7277   	0.200000	25.605    	0.200000	0.191279  	
0.250000	18.1727   	0.250000	27.6867   	0.250000	27.7813   	0.250000	27.7813   	0.250000	27.527    	0.250000	0.159769  	
0.300000	19.0586   	0.300000	28.7385   	0.300000	28.2918   	0.300000	28.2918   	0.300000	28.6008   	0.300000	0.137735  	
0.350000	19.8001   	0.350000	29.3531   	0.350000	28.5327   	0.350000	28.5327   	0.350000	29.2318   	0.350000	0.121387  	
0.400000	20.8257   	0.400000	30.3686   	0.400000	28.8854   	0.400000	28.8854   	0.400000	30.2599   	0.400000	0.108737  	
0.450000	21.6559   	0.450000	31.1543   	0.450000	29.6674   	0.450000	29.6674   	0.450000	31.0557   	0.450000	0.0986332 	
0.500000	22.3205   	0.500000	31.7827   	0.500000	30.2609   	0.500000	30.2609   	0.500000	31.6923   	0.500000	0.0903626 	
0.600000	22.4781   	0.600000	31.8993   	0.600000	31.0575   	0.600000	31.0575   	0.600000	31.8217   	0.600000	0.0775989 	
0.700000	21.8535   	0.700000	31.2401   	0.700000	30.9364   	0.700000	30.9364   	0.700000	31.172    	0.700000	0.0681778 	
0.800000	21.9001   	0.800000	30.5686   	0.800000	30.6982   	0.800000	30.6982   	0.800000	30.5077   	0.800000	0.0609171 	
0.900000	21.8356   	0.900000	29.8911   	0.900000	30.4034   	0.900000	30.4034   	0.900000	29.836    	0.900000	0.0551377 	
1.000000	21.6944   	1.000000	29.212    	1.000000	30.0694   	1.000000	30.0694   	1.000000	29.1616   	1.000000	0.0504203 	
1.250000	20.9784   	1.250000	28.1436   	1.250000	28.8101   	1.250000	28.8101   	1.250000	28.1019   	1.250000	0.0416855 	
1.500000	20.1447   	1.500000	27.0939   	1.500000	27.6449   	1.500000	27.6449   	1.500000	27.0582   	1.500000	0.0356566 	
1.750000	19.3187   	1.750000	26.1266   	1.750000	26.5784   	1.750000	26.5784   	1.750000	26.0954   	1.750000	0.0312285 	
2.000000	18.4685   	2.000000	25.1534   	2.000000	25.592    	2.000000	25.592    	2.000000	25.1255   	2.000000	0.0278296 	
2.250000	17.7324   	2.250000	24.1372   	2.250000	24.6752   	2.250000	24.6752   	2.250000	24.1121   	2.250000	0.0251331 	
2.500000	19.0766   	2.500000	23.2292   	2.500000	23.8209   	2.500000	23.8209   	2.500000	23.2063   	2.500000	0.0229383 	
3.000000	17.6349   	3.000000	21.6375   	3.000000	22.277    	3.000000	22.277    	3.000000	21.6179   	3.000000	0.0195746 	
3.500000	16.3837   	3.500000	20.274    	3.500000	20.9215   	3.500000	20.9215   	3.500000	20.2569   	3.500000	0.0171111 	
4.000000	15.2972   	4.000000	19.0788   	4.000000	19.7233   	4.000000	19.7233   	4.000000	19.0635   	4.000000	0.0152245 	
4.500000	14.3487   	4.500000	18.0172   	4.500000	18.6572   	4.500000	18.6572   	4.500000	18.0035   	4.500000	0.0137308 	
5.000000	13.5151   	5.000000	17.0645   	5.000000	17.7029   	5.000000	17.7029   	5.000000	17.052    	5.000000	0.0125169 	
5.500000	12.7776   	5.500000	16.2281   	5.500000	16.8437   	5.500000	16.8437   	5.500000	16.2166   	5.500000	0.01151   	
6.000000	12.1206   	6.000000	15.4732   	6.000000	16.0662   	6.000000	16.0662   	6.000000	15.4625   	6.000000	0.0106605 	
6.500000	11.5319   	6.500000	14.7876   	6.500000	15.359    	6.500000	15.359    	6.500000	14.7777   	6.500000	0.0099335 	
7.000000	11.0014   	7.000000	14.1618   	7.000000	14.7131   	7.000000	14.7131   	7.000000	14.1525   	7.000000	0.00930398	
7.500000	10.5208   	7.500000	13.5875   	7.500000	14.1208   	7.500000	14.1208   	7.500000	13.5787   	7.500000	0.00875324	
8.000000	10.0833   	8.000000	13.0586   	8.000000	13.5755   	8.000000	13.5755   	8.000000	13.0504   	8.000000	0.00826714	
8.500000	9.6834    	8.500000	12.5701   	8.500000	13.0718   	8.500000	13.0718   	8.500000	12.5623   	8.500000	0.00783475	
9.000000	9.31635   	9.000000	12.1174   	9.000000	12.6051   	9.000000	12.6051   	9.000000	12.11     	9.000000	0.00744748	
9.500000	8.97823   	9.500000	11.6968   	9.500000	12.1715   	9.500000	12.1715   	9.500000	11.6897   	9.500000	0.00709853	
10.000000	8.6657    	10.000000	11.4629   	10.000000	11.7674   	10.000000	11.7674   	10.000000	11.4561   	10.000000	0.00678237	
11.000000	8.10649   	11.000000	10.7941   	11.000000	11.0076   	11.000000	11.0472   	11.000000	10.7879   	11.000000	0.00623128	
12.000000	7.62046   	12.000000	10.2005   	12.000000	10.3434   	12.000000	10.4121   	12.000000	10.1947   	12.000000	0.00576681	
13.000000	7.19396   	13.000000	9.67048   	13.000000	9.75807   	13.000000	9.84804   	13.000000	9.66511   	13.000000	0.00536975	
14.000000	6.81652   	14.000000	9.19457   	14.000000	9.23838   	14.000000	9.34396   	14.000000	9.18955   	14.000000	0.0050262 	
15.000000	6.48002   	15.000000	8.76504   	15.000000	8.77409   	15.000000	8.89096   	15.000000	8.76031   	15.000000	0.00472589	
16.000000	6.17804   	16.000000	8.3755    	16.000000	8.35705   	16.000000	8.48184   	16.000000	8.37104   	16.000000	0.00446101	
17.000000	5.90545   	17.000000	8.02068   	17.000000	7.98055   	17.000000	8.11069   	17.000000	8.01646   	17.000000	0.00422555	
18.000000	5.65809   	18.000000	7.69618   	18.000000	7.63894   	18.000000	7.77261   	18.000000	7.69217   	18.000000	0.0040148 	
19.000000	5.43257   	19.000000	7.3983    	19.000000	7.32769   	19.000000	7.46352   	19.000000	7.39448   	19.000000	0.003825  	
20.000000	5.22606   	20.000000	7.12391   	20.000000	7.04311   	20.000000	7.17999   	20.000000	7.12026   	20.000000	0.00365313	
21.000000	5.03623   	21.000000	6.87036   	21.000000	6.7821    	21.000000	6.91911   	21.000000	6.86686   	21.000000	0.00349673	
22.000000	4.86109   	22.000000	6.63536   	22.000000	6.54205   	22.000000	6.67839   	22.000000	6.632     	22.000000	0.00335377	
23.000000	4.69898   	23.000000	6.41696   	23.000000	6.32065   	23.000000	6.45571   	23.000000	6.41373   	23.000000	0.00322257	
24.000000	4.54847   	24.000000	6.21346   	24.000000	6.11592   	24.000000	6.24924   	24.000000	6.21036   	24.000000	0.0031017 	
25.000000	4.40835   	25.000000	6.0234    	25.000000	5.92614   	25.000000	6.05736   	25.000000	6.02041   	25.000000	0.00298997	
27.000000	4.15515   	27.000000	5.67861   	27.000000	5.58572   	27.000000	5.712     	27.000000	5.67582   	27.000000	0.00279003	
29.000000	3.93249   	29.000000	5.37405   	29.000000	5.28952   	29.000000	5.41043   	29.000000	5.37143   	29.000000	0.00261624	
31.000000	3.73507   	31.000000	5.10308   	31.000000	5.02851   	31.000000	5.13819   	31.000000	5.10062   	31.000000	0.00246371	
33.000000	3.55877   	33.000000	4.86044   	33.000000	4.79409   	33.000000	4.8889    	33.000000	4.85812   	33.000000	0.00232872	
35.000000	3.40031   	35.000000	4.64191   	35.000000	4.58238   	35.000000	4.66496   	35.000000	4.6397    	35.000000	0.00220835	
38.000000	3.19049   	38.000000	4.352     	38.000000	4.30108   	38.000000	4.36871   	38.000000	4.34995   	38.000000	0.00205037	
41.000000	3.00815   	41.000000	4.09968   	41.000000	4.05599   	41.000000	4.1116    	41.000000	4.09776   	41.000000	0.00191435	
44.000000	2.84815   	44.000000	3.87808   	44.000000	3.84029   	44.000000	3.88632   	44.000000	3.87628   	44.000000	0.00179595	
47.000000	2.70655   	47.000000	3.6819    	47.000000	3.64946   	47.000000	3.68728   	47.000000	3.68021   	47.000000	0.00169193	
50.000000	2.58029   	50.000000	3.507     	50.000000	3.47882   	50.000000	3.51011   	50.000000	3.5054    	50.000000	0.00159976	
55.000000	2.39765   	55.000000	3.25413   	55.000000	3.23167   	55.000000	3.25441   	55.000000	3.25266   	55.000000	0.00146743	
60.000000	2.24274   	60.000000	3.03992   	60.000000	3.02189   	60.000000	3.03818   	60.000000	3.03857   	60.000000	0.0013561 	
65.000000	2.1096    	65.000000	2.85612   	65.000000	2.8417    	65.000000	2.85288   	65.000000	2.85485   	65.000000	0.0012611 	
70.000000	1.99385   	70.000000	2.69664   	70.000000	2.68506   	70.000000	2.69227   	70.000000	2.69546   	70.000000	0.00117902	
75.000000	1.89224   	75.000000	2.55695   	75.000000	2.54787   	75.000000	2.55169   	75.000000	2.55584   	75.000000	0.00110737	
80.000000	1.80229   	80.000000	2.43355   	80.000000	2.42634   	80.000000	2.42759   	80.000000	2.4325    	80.000000	0.00104426	
85.000000	1.72205   	85.000000	2.32374   	85.000000	2.31785   	85.000000	2.31721   	85.000000	2.32275   	85.000000	0.000988221	
90.000000	1.65      	90.000000	2.22539   	90.000000	2.22092   	90.000000	2.21838   	90.000000	2.22445   	90.000000	0.00093812	
95.000000	1.58493   	95.000000	2.13677   	95.000000	2.13329   	95.000000	2.12936   	95.000000	2.13588   	95.000000	0.000893047	
100.000000	1.52584   	100.000000	2.05651   	100.000000	2.05367   	100.000000	2.04876   	100.000000	2.05565   	100.000000	0.000852271	
105.000000	1.47194   	105.000000	1.98346   	105.000000	1.98143   	105.000000	1.97541   	105.000000	1.98265   	105.000000	0.000815199	
110.000000	1.42255   	110.000000	1.9167    	110.000000	1.91522   	110.000000	1.90839   	110.000000	1.91591   	110.000000	0.000781341	
115.000000	1.37711   	115.000000	1.85543   	115.000000	1.85439   	115.000000	1.8469    	115.000000	1.85468   	115.000000	0.000750291	
120.000000	1.33516   	120.000000	1.79901   	120.000000	1.79839   	120.000000	1.79028   	120.000000	1.79829   	120.000000	0.00072171	
125.000000	1.29631   	125.000000	1.74688   	125.000000	1.74664   	125.000000	1.73797   	125.000000	1.74618   	125.000000	0.00069531	
130.000000	1.26021   	130.000000	1.69856   	130.000000	1.69865   	130.000000	1.6895    	130.000000	1.69789   	130.000000	0.000670847	
135.000000	1.22658   	135.000000	1.65365   	135.000000	1.6539    	135.000000	1.64445   	135.000000	1.653     	135.000000	0.000648114	
140.000000	1.19516   	140.000000	1.6118    	140.000000	1.61228   	140.000000	1.60248   	140.000000	1.61117   	140.000000	0.000626931	
145.000000	1.16574   	145.000000	1.5727    	145.000000	1.57344   	145.000000	1.56327   	145.000000	1.57209   	145.000000	0.000607141	
150.000000	1.13812   	150.000000	1.5361    	150.000000	1.53695   	150.000000	1.52657   	150.000000	1.53551   	150.000000	0.000588612	
155.000000	1.09917   	155.000000	1.50175   	155.000000	1.50271   	155.000000	1.49214   	155.000000	1.50118   	155.000000	0.000571223	
160.000000	1.07637   	160.000000	1.46946   	160.000000	1.47053   	160.000000	1.45978   	160.000000	1.4689    	160.000000	0.000554872	
165.000000	1.05486   	165.000000	1.43904   	165.000000	1.44021   	165.000000	1.4293    	165.000000	1.4385    	165.000000	0.000539467	
170.000000	1.03453   	170.000000	1.41034   	170.000000	1.41161   	170.000000	1.40055   	170.000000	1.40982   	170.000000	0.000524928	
175.000000	1.0153    	175.000000	1.38322   	175.000000	1.38457   	175.000000	1.37338   	175.000000	1.38271   	175.000000	0.000511182	
180.000000	0.997063  	180.000000	1.35754   	180.000000	1.35898   	180.000000	1.34767   	180.000000	1.35704   	180.000000	0.000498165	
185.000000	0.979753  	185.000000	1.3332    	185.000000	1.33473   	185.000000	1.3233    	185.000000	1.33271   	185.000000	0.000485821	
190.000000	0.963297  	190.000000	1.31009   	190.000000	1.31171   	190.000000	1.30017   	190.000000	1.30962   	190.000000	0.000474097	
195.000000	0.947634  	195.000000	1.28813   	195.000000	1.28978   	195.000000	1.27819   	195.000000	1.28766   	195.000000	0.000462947	
200.000000	0.932707  	200.000000	1.26722   	200.000000	1.26887   	200.000000	1.25727   	200.000000	1.26677   	200.000000	0.000452331	
210.000000	0.904862  	210.000000	1.2283    	210.000000	1.23008   	210.000000	1.21834   	210.000000	1.22786   	210.000000	0.000432547	
220.000000	0.879403  	220.000000	1.1928    	220.000000	1.19462   	220.000000	1.18286   	220.000000	1.19238   	220.000000	0.000414484	
230.000000	0.856036  	230.000000	1.16029   	230.000000	1.16218   	230.000000	1.15039   	230.000000	1.1599    	230.000000	0.000397924	
240.000000	0.834511  	240.000000	1.13042   	240.000000	1.13242   	240.000000	1.12057   	240.000000	1.13004   	240.000000	0.000382684	
250.000000	0.814618  	250.000000	1.10288   	250.000000	1.10494   	250.000000	1.09308   	250.000000	1.10251   	250.000000	0.000368611	
260.000000	0.796177  	260.000000	1.0774    	260.000000	1.07951   	260.000000	1.06768   	260.000000	1.07705   	260.000000	0.000355573	
270.000000	0.779035  	270.000000	1.05377   	270.000000	1.05594   	270.000000	1.04413   	270.000000	1.05343   	270.000000	0.000343461	
280.000000	0.763059  	280.000000	1.03179   	280.000000	1.03403   	280.000000	1.02224   	280.000000	1.03146   	280.000000	0.000332176	
290.000000	0.748135  	290.000000	1.0113    	290.000000	1.01361   	290.000000	1.00184   	290.000000	1.01098   	290.000000	0.000321636	
300.000000	0.734162  	300.000000	0.992152  	300.000000	0.994538  	300.000000	0.982798  	300.000000	0.991841  	300.000000	0.000311769	
310.000000	0.721053  	310.000000	0.974223  	310.000000	0.97669   	310.000000	0.964977  	310.000000	0.973921  	310.000000	0.000302511	
320.000000	0.708731  	320.000000	0.957401  	320.000000	0.959953  	320.000000	0.948267  	320.000000	0.957107  	320.000000	0.000293808	
330.000000	0.697127  	330.000000	0.941588  	330.000000	0.94423   	330.000000	0.93257   	330.000000	0.941303  	330.000000	0.000285609	
340.000000	0.686182  	340.000000	0.926699  	340.000000	0.929432  	340.000000	0.9178    	340.000000	0.926421  	340.000000	0.000277873	
350.000000	0.675841  	350.000000	0.912657  	350.000000	0.91548   	350.000000	0.903878  	350.000000	0.912386  	350.000000	0.000270559	
360.000000	0.666057  	360.000000	0.899392  	360.000000	0.902322  	360.000000	0.890739  	360.000000	0.899128  	360.000000	0.000263635	
370.000000	0.656787  	370.000000	0.886845  	370.000000	0.889799  	370.000000	0.878241  	370.000000	0.886587  	370.000000	0.00025707	
380.000000	0.647993  	380.000000	0.874959  	380.000000	0.877899  	380.000000	0.866411  	380.000000	0.874708  	380.000000	0.000250835	
390.000000	0.639639  	390.000000	0.863686  	390.000000	0.866606  	390.000000	0.855196  	390.000000	0.863441  	390.000000	0.000244907	
400.000000	0.631694  	400.000000	0.852982  	400.000000	0.855925  	400.000000	0.844553  	400.000000	0.852742  	400.000000	0.000239263	
410.000000	0.624129  	410.000000	0.842805  	410.000000	0.845796  	410.000000	0.83444   	410.000000	0.842571  	410.000000	0.000233882	
420.000000	0.61692   	420.000000	0.833119  	420.000000	0.836153  	420.000000	0.824821  	420.000000	0.83289   	420.000000	0.000228747	
430.000000	0.610042  	430.000000	0.823891  	430.000000	0.826969  	430.000000	0.815662  	430.000000	0.823667  	430.000000	0.000223841	
440.000000	0.603474  	440.000000	0.81509   	440.000000	0.818223  	440.000000	0.806932  	440.000000	0.814871  	440.000000	0.000219149	
450.000000	0.597196  	450.000000	0.80669   	450.000000	0.809869  	450.000000	0.798602  	450.000000	0.806475  	450.000000	0.000214656	
460.000000	0.59119   	460.000000	0.798664  	460.000000	0.801863  	460.000000	0.790649  	460.000000	0.798454  	460.000000	0.000210351	
470.000000	0.58544   	470.000000	0.79099   	470.000000	0.794198  	470.000000	0.783047  	470.000000	0.790783  	470.000000	0.000206221	
480.000000	0.579931  	480.000000	0.783645  	480.000000	0.786884  	480.000000	0.775776  	480.000000	0.783443  	480.000000	0.000202256	
490.000000	0.574648  	490.000000	0.776611  	490.000000	0.779906  	490.000000	0.768815  	490.000000	0.776413  	490.000000	0.000198447	
500.000000	0.56958   	500.000000	0.769869  	500.000000	0.773218  	500.000000	0.762146  	500.000000	0.769674  	500.000000	0.000194783	
520.000000	0.560036  	520.000000	0.757197  	520.000000	0.760591  	520.000000	0.749619  	520.000000	0.757009  	520.000000	0.000187862	
540.000000	0.551216  	540.000000	0.745509  	540.000000	0.748985  	540.000000	0.738073  	540.000000	0.745327  	540.000000	0.000181432	
560.000000	0.543045  	560.000000	0.734702  	560.000000	0.738278  	560.000000	0.727405  	560.000000	0.734527  	560.000000	0.000175443	
580.000000	0.535459  	580.000000	0.724689  	580.000000	0.728309  	580.000000	0.717524  	580.000000	0.724519  	580.000000	0.000169851	
600.000000	0.528403  	600.000000	0.715391  	600.000000	0.71909   	600.000000	0.708354  	600.000000	0.715226  	600.000000	0.000164616	
620.000000	0.521829  	620.000000	0.706741  	620.000000	0.710534  	620.000000	0.699826  	620.000000	0.706582  	620.000000	0.000159706	
640.000000	0.515693  	640.000000	0.698681  	640.000000	0.702519  	640.000000	0.691879  	640.000000	0.698526  	640.000000	0.00015509	
660.000000	0.509959  	660.000000	0.691157  	660.000000	0.695038  	660.000000	0.684462  	660.000000	0.691006  	660.000000	0.000150742	
680.000000	0.504591  	680.000000	0.684124  	680.000000	0.688079  	680.000000	0.677527  	680.000000	0.683978  	680.000000	0.000146641	
700.000000	0.499561  	700.000000	0.677541  	700.000000	0.681558  	700.000000	0.671034  	700.000000	0.677398  	700.000000	0.000142764	
720.000000	0.494841  	720.000000	0.671371  	720.000000	0.675417  	720.000000	0.664945  	720.000000	0.671232  	720.000000	0.000139094	
