Energy (MeV/u)1	0 - [He-base] F.Hubert et al, AD&ND Tables 46(1990)1	Energy (MeV/u)2	1 - [H -base] J.F.Ziegler et al, Pergamon Press, NY (low energy)	Energy (MeV/u)3	2 - ATIMA 1.2  LS-theory (recommended for high energy)	Energy (MeV/u)4	3 - ATIMA 1.2  without LS-correction	Energy (MeV/u)5	4 - electrical component of [1] - J.F.Ziegler et al	Energy (MeV/u)6	5 - nuclear component of [1] - J.F.Ziegler et al	
0.001000	4.54861   	0.001000	4.46575   	0.001000	4.50341   	0.001000	4.50341   	0.001000	1.43879   	0.001000	3.02696   	
0.002000	4.59517   	0.002000	4.44479   	0.002000	4.49849   	0.002000	4.49849   	0.002000	1.88527   	0.002000	2.55952   	
0.005000	4.84581   	0.005000	4.47425   	0.005000	4.56655   	0.005000	4.56655   	0.005000	2.69729   	0.005000	1.77696   	
0.008000	5.16755   	0.008000	4.63704   	0.008000	4.76158   	0.008000	4.76158   	0.008000	3.24265   	0.008000	1.39439   	
0.010000	5.38155   	0.010000	4.76833   	0.010000	4.91239   	0.010000	4.91239   	0.010000	3.53926   	0.010000	1.22907   	
0.015000	6.10675   	0.015000	5.13709   	0.015000	5.33745   	0.015000	5.33745   	0.015000	4.17533   	0.015000	0.961763  	
0.020000	6.76898   	0.020000	5.56928   	0.020000	5.94247   	0.020000	5.94247   	0.020000	4.77      	0.020000	0.79928   	
0.025000	7.54821   	0.025000	6.11975   	0.025000	6.59009   	0.025000	6.59009   	0.025000	5.4312    	0.025000	0.688557  	
0.030000	8.24802   	0.030000	6.67358   	0.030000	7.19975   	0.030000	7.19975   	0.030000	6.066     	0.030000	0.607578  	
0.035000	8.8653    	0.035000	7.21827   	0.035000	7.80664   	0.035000	7.80664   	0.035000	6.67575   	0.035000	0.542526  	
0.040000	9.40791   	0.040000	7.76045   	0.040000	8.40939   	0.040000	8.40939   	0.040000	7.26834   	0.040000	0.492107  	
0.045000	9.85818   	0.045000	8.30249   	0.045000	9.0029    	0.045000	9.0029    	0.045000	7.85094   	0.045000	0.45155   	
0.050000	10.2091   	0.050000	8.82539   	0.050000	9.58421   	0.050000	9.58421   	0.050000	8.40714   	0.050000	0.418248  	
0.055000	10.7845   	0.055000	9.40073   	0.055000	10.1507   	0.055000	10.1507   	0.055000	9.01076   	0.055000	0.389973  	
0.060000	11.3014   	0.060000	9.96067   	0.060000	10.701    	0.060000	10.701    	0.060000	9.59503   	0.060000	0.365633  	
0.070000	12.1666   	0.070000	11.0277   	0.070000	11.7494   	0.070000	11.7494   	0.070000	10.7019   	0.070000	0.325787  	
0.080000	13.0878   	0.080000	12.0046   	0.080000	12.7245   	0.080000	12.7245   	0.080000	11.7101   	0.080000	0.294452  	
0.090000	13.8652   	0.090000	12.8982   	0.090000	13.6251   	0.090000	13.6251   	0.090000	12.6291   	0.090000	0.269097  	
0.100000	14.5124   	0.100000	13.6984   	0.100000	14.452    	0.100000	14.452    	0.100000	13.4503   	0.100000	0.248114  	
0.120000	15.185    	0.120000	15.0596   	0.120000	15.8948   	0.120000	15.8948   	0.120000	14.8443   	0.120000	0.215308  	
0.140000	15.6901   	0.140000	16.1609   	0.140000	17.0821   	0.140000	17.0821   	0.140000	15.9701   	0.140000	0.190743  	
0.160000	16.1362   	0.160000	17.0513   	0.160000	18.0495   	0.160000	18.0495   	0.160000	16.8798   	0.160000	0.171595  	
0.180000	16.574    	0.180000	17.7772   	0.180000	18.8328   	0.180000	18.8328   	0.180000	17.621    	0.180000	0.156209  	
0.200000	17.1183   	0.200000	18.4579   	0.200000	19.465    	0.200000	19.465    	0.200000	18.3143   	0.200000	0.143552  	
0.250000	18.1727   	0.250000	19.9871   	0.250000	20.5611   	0.250000	20.5611   	0.250000	19.8673   	0.250000	0.119862  	
0.300000	19.0586   	0.300000	21.0066   	0.300000	21.209    	0.300000	21.209    	0.300000	20.9033   	0.300000	0.103304  	
0.350000	19.8001   	0.350000	21.7412   	0.350000	21.6031   	0.350000	21.6031   	0.350000	21.6502   	0.350000	0.0910234 	
0.400000	20.8257   	0.400000	22.7736   	0.400000	22.0331   	0.400000	22.0331   	0.400000	22.692    	0.400000	0.0815232 	
0.450000	21.6559   	0.450000	23.6275   	0.450000	22.7706   	0.450000	22.7706   	0.450000	23.5536   	0.450000	0.0739374 	
0.500000	22.3205   	0.500000	24.3401   	0.500000	23.3424   	0.500000	23.3424   	0.500000	24.2724   	0.500000	0.067729  	
0.600000	22.4781   	0.600000	24.8238   	0.600000	24.1402   	0.600000	24.1402   	0.600000	24.7656   	0.600000	0.0581501 	
0.700000	21.8535   	0.700000	24.6062   	0.700000	24.1835   	0.700000	24.1835   	0.700000	24.5551   	0.700000	0.0510816 	
0.800000	21.9001   	0.800000	24.2975   	0.800000	24.1055   	0.800000	24.1055   	0.800000	24.2519   	0.800000	0.0456353 	
0.900000	21.8356   	0.900000	23.9282   	0.900000	23.9655   	0.900000	23.9655   	0.900000	23.8869   	0.900000	0.0413009 	
1.000000	21.6944   	1.000000	23.5177   	1.000000	23.7817   	1.000000	23.7817   	1.000000	23.48     	1.000000	0.0377634 	
1.250000	20.9784   	1.250000	22.8485   	1.250000	22.9429   	1.250000	22.9429   	1.250000	22.8173   	1.250000	0.0312149 	
1.500000	20.1447   	1.500000	22.1055   	1.500000	22.1349   	1.500000	22.1349   	1.500000	22.0788   	1.500000	0.0266961 	
1.750000	19.3187   	1.750000	21.3844   	1.750000	21.3756   	1.750000	21.3756   	1.750000	21.361    	1.750000	0.0233779 	
2.000000	18.4685   	2.000000	20.633    	2.000000	20.6583   	2.000000	20.6583   	2.000000	20.6121   	2.000000	0.0208312 	
2.250000	17.7324   	2.250000	19.8416   	2.250000	19.9806   	2.250000	19.9806   	2.250000	19.8228   	2.250000	0.0188111 	
2.500000	19.0766   	2.500000	19.1287   	2.500000	19.3405   	2.500000	19.3405   	2.500000	19.1116   	2.500000	0.017167  	
3.000000	17.6349   	3.000000	17.868    	3.000000	18.1658   	3.000000	18.1658   	3.000000	17.8533   	3.000000	0.0146477 	
3.500000	16.3837   	3.500000	16.7792   	3.500000	17.1185   	3.500000	17.1185   	3.500000	16.7664   	3.500000	0.0128029 	
4.000000	15.2972   	4.000000	15.8195   	4.000000	16.1823   	4.000000	16.1823   	4.000000	15.8081   	4.000000	0.0113903 	
4.500000	14.3487   	4.500000	14.9636   	4.500000	15.3423   	4.500000	15.3423   	4.500000	14.9533   	4.500000	0.010272  	
5.000000	13.5151   	5.000000	14.193    	5.000000	14.5853   	5.000000	14.5853   	5.000000	14.1836   	5.000000	0.00936331	
5.500000	12.7776   	5.500000	13.5139   	5.500000	13.9001   	5.500000	13.9001   	5.500000	13.5053   	5.500000	0.00860958	
6.000000	12.1206   	6.000000	12.8998   	6.000000	13.2772   	6.000000	13.2772   	6.000000	12.8918   	6.000000	0.00797369	
6.500000	11.5319   	6.500000	12.3411   	6.500000	12.7086   	6.500000	12.7086   	6.500000	12.3336   	6.500000	0.00742959	
7.000000	11.0014   	7.000000	11.8302   	7.000000	12.1876   	7.000000	12.1876   	7.000000	11.8233   	7.000000	0.00695846	
7.500000	10.5208   	7.500000	11.3608   	7.500000	11.7085   	7.500000	11.7085   	7.500000	11.3543   	7.500000	0.00654631	
8.000000	10.0833   	8.000000	10.928    	8.000000	11.2664   	8.000000	11.2664   	8.000000	10.9219   	8.000000	0.00618254	
8.500000	9.6834    	8.500000	10.5278   	8.500000	10.8572   	8.500000	10.8572   	8.500000	10.5219   	8.500000	0.00585898	
9.000000	9.31635   	9.000000	10.1565   	9.000000	10.4773   	9.000000	10.4773   	9.000000	10.1509   	9.000000	0.00556921	
9.500000	8.97823   	9.500000	9.81119   	9.500000	10.1237   	9.500000	10.1237   	9.500000	9.80588   	9.500000	0.0053081 	
10.000000	8.6657    	10.000000	9.77954   	10.000000	9.79368   	10.000000	9.79368   	10.000000	9.77447   	10.000000	0.00507155	
11.000000	8.10649   	11.000000	9.1993    	11.000000	9.1736    	11.000000	9.20887   	11.000000	9.19464   	11.000000	0.00465924	
12.000000	7.62046   	12.000000	8.68593   	12.000000	8.63028   	12.000000	8.69136   	12.000000	8.68162   	12.000000	0.00431176	
13.000000	7.19396   	13.000000	8.22872   	13.000000	8.15047   	13.000000	8.2305    	13.000000	8.2247    	13.000000	0.00401472	
14.000000	6.81652   	14.000000	7.81904   	14.000000	7.72378   	14.000000	7.81771   	14.000000	7.81529   	14.000000	0.00375773	
15.000000	6.48002   	15.000000	7.44994   	15.000000	7.34206   	15.000000	7.44603   	15.000000	7.4464    	15.000000	0.00353308	
16.000000	6.17804   	16.000000	7.1157    	16.000000	6.99879   	16.000000	7.1098    	16.000000	7.11237   	16.000000	0.00333496	
17.000000	5.90545   	17.000000	6.81166   	17.000000	6.68857   	17.000000	6.80434   	17.000000	6.8085    	17.000000	0.00315884	
18.000000	5.65809   	18.000000	6.5339    	18.000000	6.40684   	18.000000	6.52575   	18.000000	6.5309    	18.000000	0.00300121	
19.000000	5.43257   	19.000000	6.27918   	19.000000	6.14994   	19.000000	6.27078   	19.000000	6.27632   	19.000000	0.00285926	
20.000000	5.22606   	20.000000	6.04475   	20.000000	5.91489   	20.000000	6.03666   	20.000000	6.04202   	20.000000	0.00273072	
21.000000	5.03623   	21.000000	5.82829   	21.000000	5.69919   	21.000000	5.82107   	21.000000	5.82568   	21.000000	0.00261376	
22.000000	4.86109   	22.000000	5.62782   	22.000000	5.5007    	22.000000	5.62199   	22.000000	5.62531   	22.000000	0.00250685	
23.000000	4.69898   	23.000000	5.44162   	23.000000	5.31755   	23.000000	5.4377    	23.000000	5.43921   	23.000000	0.00240872	
24.000000	4.54847   	24.000000	5.26823   	24.000000	5.14813   	24.000000	5.26672   	24.000000	5.26591   	24.000000	0.00231834	
25.000000	4.40835   	25.000000	5.10637   	25.000000	4.99102   	25.000000	5.10775   	25.000000	5.10414   	25.000000	0.00223479	
27.000000	4.15515   	27.000000	4.81294   	27.000000	4.70908   	27.000000	4.82142   	27.000000	4.81085   	27.000000	0.00208528	
29.000000	3.93249   	29.000000	4.55396   	29.000000	4.46364   	29.000000	4.5712    	29.000000	4.55201   	29.000000	0.00195533	
31.000000	3.73507   	31.000000	4.32371   	31.000000	4.24638   	31.000000	4.34395   	31.000000	4.32187   	31.000000	0.00184128	
33.000000	3.55877   	33.000000	4.11765   	33.000000	4.05028   	33.000000	4.13463   	33.000000	4.11591   	33.000000	0.00174034	
35.000000	3.40031   	35.000000	3.93217   	35.000000	3.87306   	35.000000	3.94653   	35.000000	3.93051   	35.000000	0.00165035	
38.000000	3.19049   	38.000000	3.68623   	38.000000	3.63741   	38.000000	3.69757   	38.000000	3.6847    	38.000000	0.00153223	
41.000000	3.00815   	41.000000	3.47231   	41.000000	3.43194   	41.000000	3.48141   	41.000000	3.47088   	41.000000	0.00143054	
44.000000	2.84815   	44.000000	3.28454   	44.000000	3.25097   	44.000000	3.29192   	44.000000	3.28319   	44.000000	0.00134204	
47.000000	2.70655   	47.000000	3.11837   	47.000000	3.09079   	47.000000	3.12443   	47.000000	3.11711   	47.000000	0.00126427	
50.000000	2.58029   	50.000000	2.97029   	50.000000	2.94746   	50.000000	2.97529   	50.000000	2.96909   	50.000000	0.00119537	
55.000000	2.39765   	55.000000	2.75628   	55.000000	2.73971   	55.000000	2.75994   	55.000000	2.75518   	55.000000	0.00109645	
60.000000	2.24274   	60.000000	2.57508   	60.000000	2.56325   	60.000000	2.57774   	60.000000	2.57406   	60.000000	0.00101324	
65.000000	2.1096    	65.000000	2.41965   	65.000000	2.41158   	65.000000	2.42152   	65.000000	2.41871   	65.000000	0.000942222	
70.000000	1.99385   	70.000000	2.28484   	70.000000	2.27964   	70.000000	2.28606   	70.000000	2.28396   	70.000000	0.000880876	
75.000000	1.89224   	75.000000	2.16679   	75.000000	2.16405   	75.000000	2.16745   	75.000000	2.16596   	75.000000	0.000827325	
80.000000	1.80229   	80.000000	2.06253   	80.000000	2.06158   	80.000000	2.0627    	80.000000	2.06175   	80.000000	0.000780155	
85.000000	1.72205   	85.000000	1.96978   	85.000000	1.97006   	85.000000	1.9695    	85.000000	1.96904   	85.000000	0.000738276	
90.000000	1.65      	90.000000	1.88671   	90.000000	1.88828   	90.000000	1.88602   	90.000000	1.88601   	90.000000	0.000700833	
95.000000	1.58493   	95.000000	1.81188   	95.000000	1.81431   	95.000000	1.81082   	95.000000	1.81122   	95.000000	0.000667148	
100.000000	1.52584   	100.000000	1.74412   	100.000000	1.74707   	100.000000	1.7427    	100.000000	1.74348   	100.000000	0.000636676	
105.000000	1.47194   	105.000000	1.68245   	105.000000	1.68605   	105.000000	1.6807    	105.000000	1.68185   	105.000000	0.000608972	
110.000000	1.42255   	110.000000	1.6261    	110.000000	1.63011   	110.000000	1.62403   	110.000000	1.62552   	110.000000	0.00058367	
115.000000	1.37711   	115.000000	1.5744    	115.000000	1.5787    	115.000000	1.57203   	115.000000	1.57384   	115.000000	0.000560467	
120.000000	1.33516   	120.000000	1.52678   	120.000000	1.53135   	120.000000	1.52414   	120.000000	1.52624   	120.000000	0.00053911	
125.000000	1.29631   	125.000000	1.48279   	125.000000	1.48759   	125.000000	1.47988   	125.000000	1.48227   	125.000000	0.000519382	
130.000000	1.26021   	130.000000	1.44203   	130.000000	1.44701   	130.000000	1.43887   	130.000000	1.44152   	130.000000	0.000501103	
135.000000	1.22658   	135.000000	1.40414   	135.000000	1.40915   	135.000000	1.40074   	135.000000	1.40365   	135.000000	0.000484116	
140.000000	1.19516   	140.000000	1.36883   	140.000000	1.37394   	140.000000	1.36522   	140.000000	1.36836   	140.000000	0.000468288	
145.000000	1.16574   	145.000000	1.33585   	145.000000	1.34107   	145.000000	1.33203   	145.000000	1.3354    	145.000000	0.000453501	
150.000000	1.13812   	150.000000	1.30497   	150.000000	1.31019   	150.000000	1.30095   	150.000000	1.30453   	150.000000	0.000439656	
155.000000	1.09917   	155.000000	1.276     	155.000000	1.28119   	155.000000	1.2718    	155.000000	1.27557   	155.000000	0.000426663	
160.000000	1.07637   	160.000000	1.24876   	160.000000	1.25395   	160.000000	1.24439   	160.000000	1.24835   	160.000000	0.000414446	
165.000000	1.05486   	165.000000	1.22311   	165.000000	1.22828   	165.000000	1.21857   	165.000000	1.22271   	165.000000	0.000402936	
170.000000	1.03453   	170.000000	1.19891   	170.000000	1.20405   	170.000000	1.19422   	170.000000	1.19852   	170.000000	0.000392073	
175.000000	1.0153    	175.000000	1.17603   	175.000000	1.18115   	175.000000	1.1712    	175.000000	1.17565   	175.000000	0.000381803	
180.000000	0.997063  	180.000000	1.15438   	180.000000	1.15947   	180.000000	1.14941   	180.000000	1.15401   	180.000000	0.000372077	
185.000000	0.979753  	185.000000	1.13386   	185.000000	1.13893   	185.000000	1.12876   	185.000000	1.13349   	185.000000	0.000362854	
190.000000	0.963297  	190.000000	1.11437   	190.000000	1.11943   	190.000000	1.10916   	190.000000	1.11402   	190.000000	0.000354095	
195.000000	0.947634  	195.000000	1.09585   	195.000000	1.10085   	195.000000	1.09053   	195.000000	1.0955    	195.000000	0.000345765	
200.000000	0.932707  	200.000000	1.07822   	200.000000	1.08312   	200.000000	1.07281   	200.000000	1.07788   	200.000000	0.000337833	
210.000000	0.904862  	210.000000	1.0454    	210.000000	1.05024   	210.000000	1.03981   	210.000000	1.04508   	210.000000	0.000323052	
220.000000	0.879403  	220.000000	1.01547   	220.000000	1.02019   	220.000000	1.00973   	220.000000	1.01516   	220.000000	0.000309558	
230.000000	0.856036  	230.000000	0.988069  	230.000000	0.992684  	230.000000	0.982195  	230.000000	0.987772  	230.000000	0.000297186	
240.000000	0.834511  	240.000000	0.962886  	240.000000	0.967449  	240.000000	0.956905  	240.000000	0.9626    	240.000000	0.0002858 	
250.000000	0.814618  	250.000000	0.939664  	250.000000	0.944146  	250.000000	0.933597  	250.000000	0.939389  	250.000000	0.000275287	
260.000000	0.796177  	260.000000	0.918186  	260.000000	0.922577  	260.000000	0.91205   	260.000000	0.91792   	260.000000	0.000265548	
270.000000	0.779035  	270.000000	0.898263  	270.000000	0.902584  	270.000000	0.892075  	270.000000	0.898006  	270.000000	0.000256499	
280.000000	0.763059  	280.000000	0.879734  	280.000000	0.883996  	280.000000	0.873508  	280.000000	0.879486  	280.000000	0.000248069	
290.000000	0.748135  	290.000000	0.86246   	290.000000	0.866675  	290.000000	0.856209  	290.000000	0.86222   	290.000000	0.000240195	
300.000000	0.734162  	300.000000	0.846318  	300.000000	0.850497  	300.000000	0.840054  	300.000000	0.846085  	300.000000	0.000232824	
310.000000	0.721053  	310.000000	0.831203  	310.000000	0.835356  	310.000000	0.824936  	310.000000	0.830977  	310.000000	0.000225909	
320.000000	0.708731  	320.000000	0.817022  	320.000000	0.821157  	320.000000	0.810761  	320.000000	0.816802  	320.000000	0.000219407	
330.000000	0.697127  	330.000000	0.803691  	330.000000	0.807818  	330.000000	0.797445  	330.000000	0.803478  	330.000000	0.000213283	
340.000000	0.686182  	340.000000	0.791138  	340.000000	0.795263  	340.000000	0.784915  	340.000000	0.790931  	340.000000	0.000207504	
350.000000	0.675841  	350.000000	0.7793    	350.000000	0.783426  	350.000000	0.773105  	350.000000	0.779097  	350.000000	0.000202041	
360.000000	0.666057  	360.000000	0.768116  	360.000000	0.772263  	360.000000	0.761959  	360.000000	0.76792   	360.000000	0.000196869	
370.000000	0.656787  	370.000000	0.757538  	370.000000	0.761646  	370.000000	0.751365  	370.000000	0.757346  	370.000000	0.000191965	
380.000000	0.647993  	380.000000	0.747517  	380.000000	0.751556  	380.000000	0.741336  	380.000000	0.747329  	380.000000	0.000187308	
390.000000	0.639639  	390.000000	0.738012  	390.000000	0.74198   	390.000000	0.73183   	390.000000	0.737829  	390.000000	0.00018288	
400.000000	0.631694  	400.000000	0.728986  	400.000000	0.732925  	400.000000	0.722808  	400.000000	0.728807  	400.000000	0.000178664	
410.000000	0.624129  	410.000000	0.720405  	410.000000	0.724339  	410.000000	0.714237  	410.000000	0.72023   	410.000000	0.000174645	
420.000000	0.61692   	420.000000	0.712237  	420.000000	0.716165  	420.000000	0.706084  	420.000000	0.712067  	420.000000	0.000170809	
430.000000	0.610042  	430.000000	0.704456  	430.000000	0.708381  	430.000000	0.698322  	430.000000	0.704289  	430.000000	0.000167145	
440.000000	0.603474  	440.000000	0.697035  	440.000000	0.700968  	440.000000	0.690924  	440.000000	0.696871  	440.000000	0.00016364	
450.000000	0.597196  	450.000000	0.68995   	450.000000	0.693889  	450.000000	0.683866  	450.000000	0.68979   	450.000000	0.000160285	
460.000000	0.59119   	460.000000	0.683182  	460.000000	0.687104  	460.000000	0.677127  	460.000000	0.683024  	460.000000	0.000157069	
470.000000	0.58544   	470.000000	0.676709  	470.000000	0.680607  	470.000000	0.670687  	470.000000	0.676555  	470.000000	0.000153984	
480.000000	0.579931  	480.000000	0.670514  	480.000000	0.674409  	480.000000	0.664527  	480.000000	0.670363  	480.000000	0.000151023	
490.000000	0.574648  	490.000000	0.664581  	490.000000	0.668498  	490.000000	0.658631  	490.000000	0.664433  	490.000000	0.000148178	
500.000000	0.56958   	500.000000	0.658894  	500.000000	0.662832  	500.000000	0.652982  	500.000000	0.658749  	500.000000	0.000145441	
520.000000	0.560036  	520.000000	0.648204  	520.000000	0.652135  	520.000000	0.642374  	520.000000	0.648064  	520.000000	0.000140272	
540.000000	0.551216  	540.000000	0.638343  	540.000000	0.642307  	540.000000	0.632599  	540.000000	0.638207  	540.000000	0.00013547	
560.000000	0.543045  	560.000000	0.629224  	560.000000	0.633242  	560.000000	0.623569  	560.000000	0.629093  	560.000000	0.000130997	
580.000000	0.535459  	580.000000	0.620774  	580.000000	0.624802  	580.000000	0.615208  	580.000000	0.620647  	580.000000	0.00012682	
600.000000	0.528403  	600.000000	0.612926  	600.000000	0.617001  	600.000000	0.60745   	600.000000	0.612804  	600.000000	0.00012291	
620.000000	0.521829  	620.000000	0.605625  	620.000000	0.609764  	620.000000	0.600238  	620.000000	0.605506  	620.000000	0.000119243	
640.000000	0.515693  	640.000000	0.59882   	640.000000	0.602984  	640.000000	0.59352   	640.000000	0.598704  	640.000000	0.000115796	
660.000000	0.509959  	660.000000	0.592467  	660.000000	0.596659  	660.000000	0.587251  	660.000000	0.592354  	660.000000	0.000112549	
680.000000	0.504591  	680.000000	0.586527  	680.000000	0.590778  	680.000000	0.581392  	680.000000	0.586418  	680.000000	0.000109486	
700.000000	0.499561  	700.000000	0.580966  	700.000000	0.58527   	700.000000	0.575908  	700.000000	0.58086   	700.000000	0.000106591	
720.000000	0.494841  	720.000000	0.575753  	720.000000	0.580084  	720.000000	0.570768  	720.000000	0.57565   	720.000000	0.00010385	
