Energy (MeV/u)1	0 - [He-base] F.Hubert et al, AD&ND Tables 46(1990)1	Energy (MeV/u)2	1 - [H -base] J.F.Ziegler et al, Pergamon Press, NY (low energy)	Energy (MeV/u)3	2 - ATIMA 1.2  LS-theory (recommended for high energy)	Energy (MeV/u)4	3 - ATIMA 1.2  without LS-correction	Energy (MeV/u)5	4 - electrical component of [1] - J.F.Ziegler et al	Energy (MeV/u)6	5 - nuclear component of [1] - J.F.Ziegler et al	
0.001000	5.42181   	0.001000	6.9854    	0.001000	7.16887   	0.001000	7.16887   	0.001000	2.23654   	0.001000	4.74886   	
0.002000	5.49978   	0.002000	7.03904   	0.002000	7.33028   	0.002000	7.33028   	0.002000	2.90044   	0.002000	4.1386    	
0.005000	5.75463   	0.005000	7.07311   	0.005000	7.60236   	0.005000	7.60236   	0.005000	4.0897    	0.005000	2.98342   	
0.008000	6.08921   	0.008000	7.25761   	0.008000	7.97238   	0.008000	7.97238   	0.008000	4.87794   	0.008000	2.37967   	
0.010000	6.31684   	0.010000	7.41577   	0.010000	8.23904   	0.010000	8.23904   	0.010000	5.30368   	0.010000	2.11209   	
0.015000	7.19      	0.015000	8.00832   	0.015000	8.93091   	0.015000	8.93091   	0.015000	6.337     	0.015000	1.67132   	
0.020000	8.02409   	0.020000	8.77786   	0.020000	9.79557   	0.020000	9.79557   	0.020000	7.37924   	0.020000	1.39861   	
0.025000	9.00822   	0.025000	9.74688   	0.025000	10.7217   	0.025000	10.7217   	0.025000	8.53616   	0.025000	1.21072   	
0.030000	9.91152   	0.030000	10.7337   	0.030000	11.7591   	0.030000	11.7591   	0.030000	9.66143   	0.030000	1.07223   	
0.035000	10.7085   	0.035000	11.7189   	0.035000	12.7948   	0.035000	12.7948   	0.035000	10.7536   	0.035000	0.96531   	
0.040000	11.3974   	0.040000	12.6904   	0.040000	13.8177   	0.040000	13.8177   	0.040000	11.8105   	0.040000	0.879924  	
0.045000	11.9656   	0.045000	13.6353   	0.045000	14.816    	0.045000	14.816    	0.045000	12.8296   	0.045000	0.805728  	
0.050000	12.4013   	0.050000	14.5562   	0.050000	15.7933   	0.050000	15.7933   	0.050000	13.8087   	0.050000	0.747565  	
0.055000	13.0617   	0.055000	15.4998   	0.055000	16.7383   	0.055000	16.7383   	0.055000	14.8046   	0.055000	0.695215  	
0.060000	13.6516   	0.060000	16.4157   	0.060000	17.6544   	0.060000	17.6544   	0.060000	15.7629   	0.060000	0.652737  	
0.070000	14.6306   	0.070000	18.1687   	0.070000	19.3832   	0.070000	19.3832   	0.070000	17.5858   	0.070000	0.58296   	
0.080000	15.6797   	0.080000	19.785    	0.080000	20.9688   	0.080000	20.9688   	0.080000	19.2571   	0.080000	0.52788   	
0.090000	16.5601   	0.090000	21.2733   	0.090000	22.4102   	0.090000	22.4102   	0.090000	20.7902   	0.090000	0.483175  	
0.100000	17.3085   	0.100000	22.6311   	0.100000	23.711    	0.100000	23.711    	0.100000	22.1851   	0.100000	0.446087  	
0.120000	18.1025   	0.120000	25.014    	0.120000	25.9197   	0.120000	25.9197   	0.120000	24.6261   	0.120000	0.387933  	
0.140000	18.7469   	0.140000	27.0031   	0.140000	27.6667   	0.140000	27.6667   	0.140000	26.6589   	0.140000	0.34425   	
0.160000	19.317    	0.160000	28.5989   	0.160000	29.0318   	0.160000	29.0318   	0.160000	28.2888   	0.160000	0.310114  	
0.180000	19.8688   	0.180000	29.8562   	0.180000	30.0905   	0.180000	30.0905   	0.180000	29.5736   	0.180000	0.282631  	
0.200000	20.4281   	0.200000	30.8439   	0.200000	30.9082   	0.200000	30.9082   	0.200000	30.5839   	0.200000	0.259982  	
0.250000	21.2462   	0.250000	32.3817   	0.250000	32.2272   	0.250000	32.2272   	0.250000	32.1642   	0.250000	0.217499  	
0.300000	22.4195   	0.300000	33.8174   	0.300000	32.9313   	0.300000	32.9313   	0.300000	33.6297   	0.300000	0.187727  	
0.350000	23.4071   	0.350000	34.7212   	0.350000	33.3274   	0.350000	33.3274   	0.350000	34.5556   	0.350000	0.165603  	
0.400000	24.225    	0.400000	35.3446   	0.400000	33.8061   	0.400000	33.8061   	0.400000	35.1961   	0.400000	0.148461  	
0.450000	24.9421   	0.450000	35.8775   	0.450000	35.1871   	0.450000	35.1871   	0.450000	35.7427   	0.450000	0.134755  	
0.500000	25.7741   	0.500000	36.693    	0.500000	36.3094   	0.500000	36.3094   	0.500000	36.5695   	0.500000	0.123525  	
0.600000	26.0872   	0.600000	37.0087   	0.600000	36.8067   	0.600000	36.8067   	0.600000	36.9025   	0.600000	0.106176  	
0.700000	25.8903   	0.700000	36.9973   	0.700000	36.9278   	0.700000	36.9278   	0.700000	36.9039   	0.700000	0.0933554 	
0.800000	26.3462   	0.800000	36.7693   	0.800000	36.9005   	0.800000	36.9005   	0.800000	36.6858   	0.800000	0.083465  	
0.900000	26.5484   	0.900000	36.3411   	0.900000	36.7689   	0.900000	36.7689   	0.900000	36.2655   	0.900000	0.075586  	
1.000000	26.6106   	1.000000	35.8331   	1.000000	36.5609   	1.000000	36.5609   	1.000000	35.764    	1.000000	0.0691503 	
1.250000	26.3139   	1.250000	35.3094   	1.250000	35.8237   	1.250000	35.8237   	1.250000	35.2522   	1.250000	0.0572229 	
1.500000	25.5001   	1.500000	34.3062   	1.500000	34.6346   	1.500000	34.6346   	1.500000	34.2572   	1.500000	0.0489813 	
1.750000	24.5601   	1.750000	33.2238   	1.750000	33.4667   	1.750000	33.4667   	1.750000	33.1808   	1.750000	0.0429228 	
2.000000	23.5555   	2.000000	32.087    	2.000000	32.3742   	2.000000	32.3742   	2.000000	32.0487   	2.000000	0.038269  	
2.250000	22.6571   	2.250000	30.8449   	2.250000	31.3484   	2.250000	31.3484   	2.250000	30.8103   	2.250000	0.0345749 	
2.500000	24.935    	2.500000	29.6142   	2.500000	30.3834   	2.500000	30.3834   	2.500000	29.5826   	2.500000	0.0315666 	
3.000000	23.223    	3.000000	27.6438   	3.000000	28.6181   	3.000000	28.6181   	3.000000	27.6168   	3.000000	0.0269532 	
3.500000	21.7035   	3.500000	26.0782   	3.500000	27.0457   	3.500000	27.0457   	3.500000	26.0546   	3.500000	0.0235722 	
4.000000	20.3629   	4.000000	24.6958   	4.000000	25.6386   	4.000000	25.6386   	4.000000	24.6748   	4.000000	0.0209815 	
4.500000	19.1785   	4.500000	23.4616   	4.500000	24.3731   	4.500000	24.3731   	4.500000	23.4427   	4.500000	0.0189292 	
5.000000	18.1278   	5.000000	22.3433   	5.000000	23.2295   	5.000000	23.2295   	5.000000	22.3261   	5.000000	0.0172608 	
5.500000	17.1907   	5.500000	21.3487   	5.500000	22.1912   	5.500000	22.1912   	5.500000	21.3328   	5.500000	0.0158764 	
6.000000	16.3506   	6.000000	20.4392   	6.000000	21.2443   	6.000000	21.2443   	6.000000	20.4245   	6.000000	0.0147079 	
6.500000	15.5936   	6.500000	19.604    	6.500000	20.3772   	6.500000	20.3772   	6.500000	19.5903   	6.500000	0.0137078 	
7.000000	14.9079   	7.000000	18.8346   	7.000000	19.5802   	7.000000	19.5802   	7.000000	18.8218   	7.000000	0.0128415 	
7.500000	14.2841   	7.500000	18.124    	7.500000	18.845    	7.500000	18.845    	7.500000	18.1119   	7.500000	0.0120834 	
8.000000	13.7141   	8.000000	17.4656   	8.000000	18.1646   	8.000000	18.1646   	8.000000	17.4542   	8.000000	0.0114142 	
8.500000	13.1913   	8.500000	16.8541   	8.500000	17.5331   	8.500000	17.5331   	8.500000	16.8433   	8.500000	0.0108188 	
9.000000	12.7098   	9.000000	16.2847   	9.000000	16.9452   	9.000000	16.9452   	9.000000	16.2744   	9.000000	0.0102854 	
9.500000	12.2651   	9.500000	15.7531   	9.500000	16.3966   	9.500000	16.3966   	9.500000	15.7433   	9.500000	0.00980476	
10.000000	11.8529   	10.000000	15.469    	10.000000	15.8833   	10.000000	15.8833   	10.000000	15.4597   	10.000000	0.00936919	
11.000000	11.1128   	11.000000	14.6192   	11.000000	14.9008   	11.000000	14.9688   	11.000000	14.6106   	11.000000	0.00860979	
12.000000	10.4669   	12.000000	13.8593   	12.000000	14.0378   	12.000000	14.1567   	12.000000	13.8514   	12.000000	0.00796959	
13.000000	9.89808   	13.000000	13.1764   	13.000000	13.2738   	13.000000	13.4309   	13.000000	13.169    	13.000000	0.00742217	
14.000000	9.39304   	14.000000	12.5596   	14.000000	12.5929   	14.000000	12.7787   	14.000000	12.5526   	14.000000	0.00694844	
15.000000	8.9415    	15.000000	12        	15.000000	11.9822   	15.000000	12.1896   	15.000000	11.9935   	15.000000	0.00653423	
16.000000	8.53525   	16.000000	11.4901   	16.000000	11.4319   	16.000000	11.6551   	16.000000	11.484    	16.000000	0.00616883	
17.000000	8.16769   	17.000000	11.0238   	17.000000	10.9336   	17.000000	11.1681   	17.000000	11.0179   	17.000000	0.00584397	
18.000000	7.83346   	18.000000	10.5956   	18.000000	10.4804   	18.000000	10.7228   	18.000000	10.59     	18.000000	0.00555315	
19.000000	7.52814   	19.000000	10.2011   	19.000000	10.0664   	19.000000	10.3141   	19.000000	10.1958   	19.000000	0.00529121	
20.000000	7.24808   	20.000000	9.8366    	20.000000	9.68714   	20.000000	9.93802   	20.000000	9.83155   	20.000000	0.00505398	
21.000000	6.99022   	21.000000	9.49874   	21.000000	9.33856   	21.000000	9.59086   	21.000000	9.4939    	21.000000	0.00483808	
22.000000	6.75196   	22.000000	9.18473   	22.000000	9.01714   	22.000000	9.26959   	22.000000	9.18009   	22.000000	0.0046407 	
23.000000	6.53113   	23.000000	8.89214   	23.000000	8.72003   	23.000000	8.97158   	23.000000	8.88768   	23.000000	0.00445953	
24.000000	6.32583   	24.000000	8.61886   	24.000000	8.44483   	24.000000	8.69452   	24.000000	8.61457   	24.000000	0.00429262	
25.000000	6.13447   	25.000000	8.36305   	25.000000	8.18941   	25.000000	8.43643   	25.000000	8.35891   	25.000000	0.00413832	
27.000000	5.78812   	27.000000	7.89754   	27.000000	7.73035   	27.000000	7.97036   	27.000000	7.89368   	27.000000	0.00386216	
29.000000	5.48294   	29.000000	7.48483   	29.000000	7.33014   	29.000000	7.5617    	29.000000	7.48121   	29.000000	0.00362206	
31.000000	5.21187   	31.000000	7.11642   	31.000000	6.97825   	31.000000	7.18997   	31.000000	7.113     	31.000000	0.00341131	
33.000000	4.96942   	33.000000	6.78554   	33.000000	6.66224   	33.000000	6.84724   	33.000000	6.78232   	33.000000	0.00322476	
35.000000	4.75119   	35.000000	6.48676   	35.000000	6.37599   	35.000000	6.53865   	35.000000	6.4837    	35.000000	0.00305841	
38.000000	4.46178   	38.000000	6.08923   	38.000000	5.99448   	38.000000	6.12935   	38.000000	6.08639   	38.000000	0.00284002	
41.000000	4.20985   	41.000000	5.74218   	41.000000	5.66085   	41.000000	5.77319   	41.000000	5.73953   	41.000000	0.00265197	
44.000000	3.98845   	44.000000	5.43658   	44.000000	5.36662   	44.000000	5.46042   	44.000000	5.43409   	44.000000	0.00248826	
47.000000	3.79226   	47.000000	5.16541   	47.000000	5.10444   	47.000000	5.18354   	47.000000	5.16307   	47.000000	0.00234439	
50.000000	3.61713   	50.000000	4.92317   	50.000000	4.86995   	50.000000	4.93668   	50.000000	4.92095   	50.000000	0.00221691	
55.000000	3.36345   	55.000000	4.57214   	55.000000	4.52979   	55.000000	4.57977   	55.000000	4.5701    	55.000000	0.00203385	
60.000000	3.14797   	60.000000	4.27406   	60.000000	4.23991   	60.000000	4.27739   	60.000000	4.27218   	60.000000	0.00187982	
65.000000	2.96253   	65.000000	4.01777   	65.000000	3.99014   	65.000000	4.01788   	65.000000	4.01603   	65.000000	0.00174834	
70.000000	2.80115   	70.000000	3.79505   	70.000000	3.7727    	70.000000	3.79269   	70.000000	3.79341   	70.000000	0.00163474	
75.000000	2.65935   	75.000000	3.59968   	75.000000	3.58179   	75.000000	3.59539   	75.000000	3.59815   	75.000000	0.00153556	
80.000000	2.53371   	80.000000	3.42691   	80.000000	3.41248   	80.000000	3.42109   	80.000000	3.42547   	80.000000	0.00144819	
85.000000	2.42156   	85.000000	3.27302   	85.000000	3.26162   	85.000000	3.26595   	85.000000	3.27165   	85.000000	0.0013706 	
90.000000	2.3208    	90.000000	3.13507   	90.000000	3.12596   	90.000000	3.12698   	90.000000	3.13377   	90.000000	0.00130123	
95.000000	2.22973   	95.000000	3.01068   	95.000000	3.00363   	95.000000	3.00175   	95.000000	3.00945   	95.000000	0.00123881	
100.000000	2.14701   	100.000000	2.89796   	100.000000	2.8924    	100.000000	2.88831   	100.000000	2.89678   	100.000000	0.00118233	
105.000000	2.0715    	105.000000	2.79532   	105.000000	2.79145   	105.000000	2.78506   	105.000000	2.79419   	105.000000	0.00113099	
110.000000	2.00229   	110.000000	2.70146   	110.000000	2.69859   	110.000000	2.69069   	110.000000	2.70038   	110.000000	0.00108408	
115.000000	1.93859   	115.000000	2.61531   	115.000000	2.61346   	115.000000	2.60409   	115.000000	2.61427   	115.000000	0.00104107	
120.000000	1.87977   	120.000000	2.53594   	120.000000	2.53499   	120.000000	2.52433   	120.000000	2.53493   	120.000000	0.00100147	
125.000000	1.82527   	125.000000	2.46258   	125.000000	2.46235   	125.000000	2.45064   	125.000000	2.46161   	125.000000	0.000964894	
130.000000	1.77461   	130.000000	2.39457   	130.000000	2.39521   	130.000000	2.38233   	130.000000	2.39364   	130.000000	0.000930999	
135.000000	1.7274    	135.000000	2.33134   	135.000000	2.33262   	135.000000	2.31885   	135.000000	2.33044   	135.000000	0.000899497	
140.000000	1.68329   	140.000000	2.27241   	140.000000	2.27405   	140.000000	2.2597    	140.000000	2.27154   	140.000000	0.000870141	
145.000000	1.64198   	145.000000	2.21735   	145.000000	2.21933   	145.000000	2.20444   	145.000000	2.21651   	145.000000	0.000842715	
150.000000	1.60319   	150.000000	2.16579   	150.000000	2.16825   	150.000000	2.15271   	150.000000	2.16497   	150.000000	0.000817034	
155.000000	1.54842   	155.000000	2.11741   	155.000000	2.1202    	155.000000	2.10417   	155.000000	2.11661   	155.000000	0.000792932	
160.000000	1.51639   	160.000000	2.07191   	160.000000	2.07492   	160.000000	2.05855   	160.000000	2.07114   	160.000000	0.000770268	
165.000000	1.48617   	165.000000	2.02906   	165.000000	2.0323    	165.000000	2.01558   	165.000000	2.02831   	165.000000	0.000748914	
170.000000	1.4576    	170.000000	1.98862   	170.000000	1.99208   	170.000000	1.97504   	170.000000	1.98789   	170.000000	0.000728759	
175.000000	1.43057   	175.000000	1.95039   	175.000000	1.95407   	175.000000	1.93674   	175.000000	1.94968   	175.000000	0.000709703	
180.000000	1.40493   	180.000000	1.9142    	180.000000	1.91808   	180.000000	1.90048   	180.000000	1.91351   	180.000000	0.000691657	
185.000000	1.3806    	185.000000	1.8799    	185.000000	1.88397   	185.000000	1.86612   	185.000000	1.87922   	185.000000	0.000674542	
190.000000	1.35746   	190.000000	1.84733   	190.000000	1.85158   	190.000000	1.83351   	190.000000	1.84667   	190.000000	0.000658287	
195.000000	1.33543   	195.000000	1.81637   	195.000000	1.82081   	195.000000	1.80251   	195.000000	1.81572   	195.000000	0.000642828	
200.000000	1.31444   	200.000000	1.7869    	200.000000	1.79152   	200.000000	1.77302   	200.000000	1.78627   	200.000000	0.000628106	
210.000000	1.27527   	210.000000	1.73203   	210.000000	1.73679   	210.000000	1.71813   	210.000000	1.73143   	210.000000	0.000600673	
220.000000	1.23946   	220.000000	1.68198   	220.000000	1.68703   	220.000000	1.66809   	220.000000	1.68141   	220.000000	0.000575623	
230.000000	1.20658   	230.000000	1.63616   	230.000000	1.64138   	230.000000	1.6223    	230.000000	1.6356    	230.000000	0.000552656	
240.000000	1.17628   	240.000000	1.59404   	240.000000	1.59938   	240.000000	1.58024   	240.000000	1.59351   	240.000000	0.000531519	
250.000000	1.14828   	250.000000	1.55521   	250.000000	1.56069   	250.000000	1.54148   	250.000000	1.55469   	250.000000	0.000511998	
260.000000	1.12233   	260.000000	1.51928   	260.000000	1.5249    	260.000000	1.50565   	260.000000	1.51879   	260.000000	0.000493914	
270.000000	1.09819   	270.000000	1.48596   	270.000000	1.49172   	270.000000	1.47244   	270.000000	1.48548   	270.000000	0.00047711	
280.000000	1.0757    	280.000000	1.45497   	280.000000	1.46088   	280.000000	1.44157   	280.000000	1.45451   	280.000000	0.000461455	
290.000000	1.05468   	290.000000	1.42608   	290.000000	1.43214   	290.000000	1.41281   	290.000000	1.42563   	290.000000	0.000446833	
300.000000	1.03501   	300.000000	1.39908   	300.000000	1.40529   	300.000000	1.38595   	300.000000	1.39865   	300.000000	0.000433143	
310.000000	1.01655   	310.000000	1.3738    	310.000000	1.38017   	310.000000	1.36082   	310.000000	1.37338   	310.000000	0.000420298	
320.000000	0.999192  	320.000000	1.35008   	320.000000	1.35662   	320.000000	1.33725   	320.000000	1.34967   	320.000000	0.000408221	
330.000000	0.982848  	330.000000	1.32778   	330.000000	1.33441   	330.000000	1.31511   	330.000000	1.32738   	330.000000	0.000396844	
340.000000	0.967431  	340.000000	1.30678   	340.000000	1.31349   	340.000000	1.29428   	340.000000	1.3064    	340.000000	0.000386108	
350.000000	0.952864  	350.000000	1.28698   	350.000000	1.29386   	350.000000	1.27465   	350.000000	1.28661   	350.000000	0.000375959	
360.000000	0.939081  	360.000000	1.26828   	360.000000	1.27529   	360.000000	1.25612   	360.000000	1.26791   	360.000000	0.00036635	
370.000000	0.926022  	370.000000	1.25058   	370.000000	1.25757   	370.000000	1.23849   	370.000000	1.25023   	370.000000	0.000357238	
380.000000	0.913631  	380.000000	1.23382   	380.000000	1.24086   	380.000000	1.22181   	380.000000	1.23347   	380.000000	0.000348585	
390.000000	0.901861  	390.000000	1.21793   	390.000000	1.22504   	390.000000	1.20599   	390.000000	1.21759   	390.000000	0.000340357	
400.000000	0.890666  	400.000000	1.20283   	400.000000	1.20996   	400.000000	1.19098   	400.000000	1.2025    	400.000000	0.000332522	
410.000000	0.880008  	410.000000	1.18848   	410.000000	1.19561   	410.000000	1.17672   	410.000000	1.18816   	410.000000	0.000325054	
420.000000	0.869849  	420.000000	1.17482   	420.000000	1.18203   	420.000000	1.16316   	420.000000	1.1745    	420.000000	0.000317926	
430.000000	0.860157  	430.000000	1.16181   	430.000000	1.1691    	430.000000	1.15024   	430.000000	1.1615    	430.000000	0.000311116	
440.000000	0.850901  	440.000000	1.1494    	440.000000	1.15674   	440.000000	1.13793   	440.000000	1.1491    	440.000000	0.000304602	
450.000000	0.842054  	450.000000	1.13755   	450.000000	1.14492   	450.000000	1.12618   	450.000000	1.13726   	450.000000	0.000298365	
460.000000	0.833591  	460.000000	1.12624   	460.000000	1.13362   	460.000000	1.11496   	460.000000	1.12594   	460.000000	0.000292388	
470.000000	0.825488  	470.000000	1.11541   	470.000000	1.12283   	470.000000	1.10424   	470.000000	1.11513   	470.000000	0.000286655	
480.000000	0.817724  	480.000000	1.10506   	480.000000	1.11254   	480.000000	1.09399   	480.000000	1.10478   	480.000000	0.00028115	
490.000000	0.810278  	490.000000	1.09514   	490.000000	1.10271   	490.000000	1.08417   	490.000000	1.09486   	490.000000	0.000275861	
500.000000	0.803135  	500.000000	1.08563   	500.000000	1.09329   	500.000000	1.07477   	500.000000	1.08536   	500.000000	0.000270775	
520.000000	0.789684  	520.000000	1.06776   	520.000000	1.07553   	520.000000	1.0571    	520.000000	1.0675    	520.000000	0.000261164	
540.000000	0.777252  	540.000000	1.05128   	540.000000	1.05913   	540.000000	1.04082   	540.000000	1.05103   	540.000000	0.000252236	
560.000000	0.765734  	560.000000	1.03604   	560.000000	1.04398   	560.000000	1.02577   	560.000000	1.0358    	560.000000	0.00024392	
580.000000	0.755042  	580.000000	1.02192   	580.000000	1.02995   	580.000000	1.01184   	580.000000	1.02168   	580.000000	0.000236154	
600.000000	0.745096  	600.000000	1.00881   	600.000000	1.01693   	600.000000	0.998905  	600.000000	1.00858   	600.000000	0.000228884	
620.000000	0.735829  	620.000000	0.996612  	620.000000	1.00481   	620.000000	0.986877  	620.000000	0.99639   	620.000000	0.000222065	
640.000000	0.72718   	640.000000	0.985246  	640.000000	0.993527  	640.000000	0.97567   	640.000000	0.98503   	640.000000	0.000215654	
660.000000	0.719095  	660.000000	0.974637  	660.000000	0.982988  	660.000000	0.96521   	660.000000	0.974427  	660.000000	0.000209616	
680.000000	0.711528  	680.000000	0.964719  	680.000000	0.973135  	680.000000	0.955431  	680.000000	0.964515  	680.000000	0.000203918	
700.000000	0.704437  	700.000000	0.955436  	700.000000	0.963907  	700.000000	0.946273  	700.000000	0.955238  	700.000000	0.000198534	
720.000000	0.697784  	720.000000	0.946736  	720.000000	0.955254  	720.000000	0.937687  	720.000000	0.946542  	720.000000	0.000193436	
